,wavelength,drop,thru
0,1570.0062530120474,5.586487363652691e-05,0.050893949000260376
1,1570.0072542168675,4.9929160094302116e-05,0.050893568873684895
2,1570.0084843373495,,0.050897862511471784
3,1570.0096915662655,4.7274442403660365e-05,0.050880433192861264
4,1570.0108746987944,5.216600865607285e-05,0.05097294356749528
5,1570.0122518072294,5.104190116392482e-05,0.0508865790932758
6,1570.0134734939763,5.264988569633581e-05,0.050907329936691545
7,1570.0142987951808,5.236218415743535e-05,0.050999263594702145
8,1570.0150578313248,5.070369601117986e-05,0.050971985241341174
9,1570.0160602409633,5.461513047972254e-05,0.05092142960666132
10,1570.017018072289,5.4047528332517587e-05,0.05097624449885744
11,1570.0175096385549,5.139517055474482e-05,0.051000615470308215
12,1570.017798795181,5.33380546178786e-05,0.05097777975170343
13,1570.0182638554224,5.0103058753942464e-05,0.0509816300888327
14,1570.0190614457824,4.829643733784076e-05,0.05095689580216841
15,1570.0199626506019,4.736543263746888e-05,0.05097711488242213
16,1570.020801204819,5.146198914699674e-05,0.0509954695456345
17,1570.021749397591,5.086200845048555e-05,0.050986846546900014
18,1570.022859036145,5.137304859274453e-05,0.05098283250845495
19,1570.0238722891568,4.825525868932379e-05,0.0510005892482874
20,1570.024685542168,4.9258983816062804e-05,0.05103060387051557
21,1570.0254999999988,4.9320788158272156e-05,0.0510255984742041
22,1570.0264277108433,5.186725613240015e-05,0.05101416584280581
23,1570.0272698795184,5.236735834249928e-05,0.05102061420562765
24,1570.0278578313253,4.681101617816738e-05,0.051059233475611705
25,1570.0284132530123,5.026974114692339e-05,0.051042895844582686
26,1570.0290867469873,5.3408144437687424e-05,0.05104052860587782
27,1570.029844578313,4.969448181316225e-05,0.05105882274816793
28,1570.0306433734931,5.516284725477178e-05,0.05106480295947094
29,1570.031606024097,5.550695861948837e-05,0.051063826096932
30,1570.0327337349404,5.722189251898104e-05,0.05108005134196884
31,1570.0340759036146,5.044249884386937e-05,0.051101848614875794
32,1570.0356096385544,5.3826061767574666e-05,0.051117326806774194
33,1570.037295180723,5.1986593114283334e-05,0.05109401582322363
34,1570.0391277108429,5.806425335793156e-05,0.051166250281017525
35,1570.0410060240972,5.506452398763132e-05,0.05110054450714482
36,1570.0425301204823,5.189078072982954e-05,0.05114870573552778
37,1570.043701204819,5.615385056863185e-05,0.05118208326914538
38,1570.0448542168667,5.327667390326555e-05,0.051156983255835085
39,1570.0460819277118,5.341013492790325e-05,0.05114439508317925
40,1570.0470843373503,5.170532020921606e-05,0.05117851221276726
41,1570.0476759036148,5.1797735934196564e-05,0.05118818533489181
42,1570.0481349397594,5.874179016035915e-05,0.05118166230394189
43,1570.048678313253,5.158516125017439e-05,0.05116142907645614
44,1570.0492240963852,5.802298654416053e-05,0.051159013008545876
45,1570.0497566265055,5.313359632923676e-05,0.051171057317479646
46,1570.0503578313253,5.23775895335748e-05,0.05116897972531487
47,1570.0510373493987,5.2996036550921244e-05,0.05116806735223835
48,1570.0517662650611,5.2666729300540965e-05,0.05118160077869874
49,1570.0525180722886,5.277512339958811e-05,0.05116895174553011
50,1570.053292771084,5.1858521605389324e-05,0.05117724854982695
51,1570.0541024096376,5.545593340611998e-05,0.05118211511400873
52,1570.054877108433,5.695390653432584e-05,0.05118517392876158
53,1570.0556301204826,5.320636140847725e-05,0.05119809183214355
54,1570.0564168674703,5.853670194189338e-05,0.0512084954239711
55,1570.0573457831329,5.795482102855341e-05,0.051201725606571706
56,1570.0584289156623,5.598242715396442e-05,0.05121350167336258
57,1570.059638554217,5.300691591981663e-05,0.05122874648115872
58,1570.061012048193,5.6160203948148094e-05,0.0512338233116552
59,1570.0625506024096,5.698695699875191e-05,0.051243682297361426
60,1570.0641578313246,5.717167388930967e-05,0.05124743034482532
61,1570.0657301204826,6.0104283644921955e-05,0.05126746039943094
62,1570.0672240963856,5.476432230179208e-05,0.05127751376710104
63,1570.0687156626498,5.8778544785408664e-05,0.051292224265606194
64,1570.0701975903619,5.395153160028742e-05,0.05128846479299197
65,1570.0715927710846,5.973058914058011e-05,0.05129152653494342
66,1570.072745783132,5.8583713268196125e-05,0.05131170556383825
67,1570.0736578313247,6.017581279983951e-05,0.05132753783488011
68,1570.0744373493972,5.4166826820485155e-05,0.05133365052496601
69,1570.0751373493988,5.891384818193226e-05,0.051342691960631064
70,1570.0758060240973,,0.05134992516872136
71,1570.0763734939767,5.7005524555020386e-05,0.05135809211645437
72,1570.0769132530115,5.9047807383757316e-05,0.05137071958415663
73,1570.0774542168674,5.523100064076034e-05,0.05137545880120598
74,1570.0779939759034,5.665569586647397e-05,0.051382358928975594
75,1570.0785771084327,5.6128935550964676e-05,0.051390726512927795
76,1570.0792301204817,5.811364789234187e-05,0.051387506321474714
77,1570.0799060240975,5.851025573556842e-05,0.051399149837580455
78,1570.0806036144581,5.994467675508072e-05,0.05140414371366193
79,1570.0813518072289,5.965914591070321e-05,0.05140402852254615
80,1570.082214457831,5.718115443884749e-05,0.05140150019958551
81,1570.0832469879517,5.3330623330551494e-05,0.051395178893431405
82,1570.0843771084346,6.115141271830114e-05,0.05139845391647918
83,1570.085627710843,5.7979780512684095e-05,0.05140145929194064
84,1570.0870481927702,6.298682392822828e-05,0.05139688018614025
85,1570.0886457831323,6.238188837856944e-05,0.051383770133489874
86,1570.0903879518078,6.080279701718392e-05,0.051369233688464876
87,1570.0921012048188,5.9358034952032096e-05,0.05134831339586355
88,1570.0936421686752,5.922127270696468e-05,0.05133737970287286
89,1570.0949795180725,6.340895239376533e-05,0.05132725247806852
90,1570.0962036144579,6.318332816320151e-05,0.05131860910406534
91,1570.0973361445776,5.890915393692406e-05,0.051302831226310464
92,1570.0983228915659,6.34486263938067e-05,0.05129252718715874
93,1570.0991216867474,6.137322066588662e-05,0.05128200192929103
94,1570.0997060240973,6.822668975366784e-05,0.05127441157945562
95,1570.1002144578317,6.308050123094608e-05,0.05126289705046943
96,1570.100696385542,6.528204210906666e-05,0.05125404572137289
97,1570.1012192771084,6.648553782932684e-05,0.05124077098127236
98,1570.1017831325303,6.26515746159891e-05,0.051234815996323166
99,1570.1024036144574,6.148038003446302e-05,0.05122144752632327
100,1570.103072289156,6.263777029851714e-05,0.05119772229832303
101,1570.103808433736,6.667454484900102e-05,0.051167105401683614
102,1570.1045843373502,6.339241140083154e-05,0.05115357335677482
103,1570.1053903614463,6.570954893935803e-05,0.05114728636006947
104,1570.106219277108,7.090731449898412e-05,0.05114269514585975
105,1570.1071289156614,6.60484538152081e-05,0.051137505151220126
106,1570.108197590362,6.805188911942787e-05,0.05112325854744015
107,1570.1094518072293,6.640207591939004e-05,0.05110192773518753
108,1570.1108204819277,6.630131468423359e-05,0.05108419446486634
109,1570.1122746987942,6.983455507763099e-05,0.051064334082072116
110,1570.113771084338,6.573743097644576e-05,0.05104111373740037
111,1570.1153433734944,6.827023862501514e-05,0.05103112774442718
112,1570.1169036144574,7.09684446878056e-05,0.050993397900322514
113,1570.118340963856,7.132923665369409e-05,0.05097551600690431
114,1570.1196325301207,6.703359381960496e-05,0.05096208126893914
115,1570.120828915662,6.841018416390596e-05,0.05093817724976184
116,1570.1219590361436,7.379676256674812e-05,0.05091366801767668
117,1570.122995180723,7.072853752127332e-05,0.05089889960625141
118,1570.123908433735,7.466696912790512e-05,0.050889460685508696
119,1570.124685542169,6.989069043425096e-05,0.05087247714342145
120,1570.1254192771084,7.262598387657723e-05,0.05086094031263397
121,1570.1260638554213,7.639607473672818e-05,0.05084613225509009
122,1570.1266795180727,7.675573557946634e-05,0.05084356859063885
123,1570.1273156626507,7.272238607013341e-05,0.05082937846197092
124,1570.1279722891572,7.224474968360333e-05,0.050813698478732024
125,1570.128596385543,7.633189069764064e-05,0.05080762901103851
126,1570.1292421686753,7.52025931448914e-05,0.05080084106858676
127,1570.129955421687,7.68317444270047e-05,0.05078449583636825
128,1570.1307180722886,7.296211842698841e-05,0.05076722902961581
129,1570.1315168674691,7.751312057695652e-05,0.050756362343217336
130,1570.1323963855427,7.702579140933477e-05,0.050746411706015356
131,1570.1334530120484,7.882676074387703e-05,0.050732370035441475
132,1570.1346542168678,7.997221657683265e-05,0.05070565572508228
133,1570.1359457831318,7.882821229041985e-05,0.05068650279513156
134,1570.1373072289168,8.25120588313541e-05,0.05065933223160176
135,1570.138754216868,8.031831434409052e-05,0.050637544670458855
136,1570.1402373493968,8.011666760976705e-05,0.05059854133587365
137,1570.1416518072292,8.135930635631127e-05,0.050588457157892154
138,1570.1430060240968,9.074531961164696e-05,0.05056461324588319
139,1570.1442783132527,8.390896608974645e-05,0.050537064874951756
140,1570.1455120481921,8.971952838513618e-05,0.05050449306020183
141,1570.1465927710842,8.807366001420833e-05,0.050488151605428785
142,1570.147553012049,8.494510635309536e-05,0.050468934988042564
143,1570.1483746987956,8.683694523741893e-05,0.05046755286718169
144,1570.1491096385544,9.031348771545187e-05,0.050457372907245626
145,1570.1497879518063,9.187917411464609e-05,0.05044828327366868
146,1570.1504228915655,9.188569890907737e-05,0.05043789368597124
147,1570.1510795180716,9.696287966683434e-05,0.05042996408546378
148,1570.1517373493982,9.355364135057617e-05,0.05042922023933319
149,1570.152395180723,9.443013882215051e-05,0.050418600814060945
150,1570.1530867469883,9.373890436704532e-05,0.05042430475516374
151,1570.1538650602404,9.292659653372943e-05,0.0504144494492835
152,1570.1547144578306,9.878724667768226e-05,0.050402758000766754
153,1570.155602409638,9.065965032831881e-05,0.050395977125150294
154,1570.1565674698804,9.74951782929075e-05,0.05038528041227267
155,1570.1576265060241,9.8121420992483e-05,0.05037697447960315
156,1570.1587686746984,0.00010328556418022993,0.05035757952190783
157,1570.1599518072276,0.00010308904250247096,0.05033790726100889
158,1570.1612036144586,0.00010185141298873811,0.050315530187170436
159,1570.162537349398,0.0001030901064933043,0.050284188188132656
160,1570.1638759036136,0.00010286481138271387,0.05025954430839805
161,1570.1651554216855,0.00010533454850004293,0.05023095674274153
162,1570.166396385543,0.00010759504813979092,0.05020775837821443
163,1570.1675662650605,0.00010676787016929325,0.050169362025200996
164,1570.1686819277108,0.00011179977487080515,0.05014542404392437
165,1570.1697469879512,0.00011337452839313812,0.050120017694817956
166,1570.1707253012048,0.00010957737512400121,0.05009019425958164
167,1570.171668674699,0.00011494290292414738,0.0500590906414757
168,1570.1725807228918,0.00011297756542706088,0.050033417041111444
169,1570.173460240964,0.00011860835891182073,0.05000820620757367
170,1570.1743385542163,0.00011890998823999285,0.04998359086289509
171,1570.1752445783136,0.00012190420484505196,0.04995720222425029
172,1570.1761433734948,0.0001214276375227677,0.049928368600583486
173,1570.1770228915673,0.0001261465426950409,0.049907553426824305
174,1570.1778831325305,0.0001258600509477075,0.0498809763661757
175,1570.1787228915664,0.00012398997552584394,0.04985406385480273
176,1570.1795674698792,0.00012794749674917126,0.0498275772805431
177,1570.1804156626513,0.00012411016528112034,0.049804496332434355
178,1570.1813096385547,0.00012901603531792488,0.04977276926376891
179,1570.182239759037,0.0001300501167463039,0.04975165297945841
180,1570.1832240963854,0.00013164548900705637,0.04971801436679921
181,1570.1842313253005,0.00014326649237887608,0.04969361928665022
182,1570.1852734939769,0.00013983715218256323,0.04966216089936548
183,1570.1863674698798,0.00013454426834346345,0.049630218847762295
184,1570.1874915662656,0.000147789497697615,0.04959463028816714
185,1570.1886409638553,0.00014298452560809229,0.04955710827819122
186,1570.1897987951806,0.00015208926610900278,0.04952852911103976
187,1570.1909554216875,0.00015432255839771213,0.04949381053367241
188,1570.1921072289158,0.00015784241707698848,0.049456022005381746
189,1570.1932397590358,0.00015746513224594257,0.04942033750118894
190,1570.1943759036137,0.00015684708898564228,0.04938596844744412
191,1570.1954963855426,0.0001658074346806836,0.04934342581730162
192,1570.1966012048194,0.00016905270903746987,0.04930995213924257
193,1570.1976662650604,0.00017223647877969198,0.04927993960320776
194,1570.1986927710839,0.00017105704024439916,0.049246082973677274
195,1570.1996891566278,0.0001794141028801114,0.04921456202693681
196,1570.200657831326,0.00018084555061817113,0.04918588480022091
197,1570.2015795180725,0.00018997298013500243,0.04916103179982476
198,1570.2024734939757,0.00018580316067533717,0.049133281460371825
199,1570.20334939759,0.0001887014475272817,0.049101560830890074
200,1570.2041903614456,0.00019561897315028222,0.049073447186643235
201,1570.2050253012055,0.00019911686330726364,0.049050291236935446
202,1570.2058674698796,0.00020122308178437636,0.04902854483160944
203,1570.2067289156628,0.0002050845380368053,0.04899781345859027
204,1570.207624096385,0.00020933476163369688,0.0489692689512191
205,1570.2085313253006,0.00021353192769673,0.04894377416668324
206,1570.2095024096393,0.00021939337403745925,0.04891258610753911
207,1570.2105072289166,0.0002234279559392134,0.048875606463492045
208,1570.2115096385544,0.00022585389756148773,0.04884449294747053
209,1570.2125746987942,0.000236774193502123,0.04880692435548835
210,1570.2136566265053,0.00024161625541540952,0.04876641515565429
211,1570.2147855421692,0.00024398535864173478,0.04871700159571794
212,1570.2159301204822,0.0002528629901959035,0.04866613738635837
213,1570.2171024096376,0.0002667004490945516,0.04861285395562627
214,1570.2182795180722,0.00027190213204435784,0.04855259291674708
215,1570.2194783132538,0.000280045123964939,0.04849042087918248
216,1570.2206686746993,0.00029372117954782863,0.048421918950104156
217,1570.2218614457825,0.00029937404834718366,0.048355682659912726
218,1570.2230385542166,0.00031472616571991824,0.048275375195950765
219,1570.2241698795187,0.0003248910593518763,0.04820093075058968
220,1570.225259036145,0.0003343840101588283,0.048126791016295085
221,1570.226306024096,0.0003423697400248379,0.048056324227279915
222,1570.2273072289142,0.0003583726652676129,0.04798465362063357
223,1570.2282506024103,0.00036784695048170014,0.047916239833339286
224,1570.229153012049,0.0003806691307719066,0.047855390077112425
225,1570.2300108433735,0.00039138050934576433,0.04778813312558139
226,1570.2308120481925,0.0004022206148913603,0.0477310260404604
227,1570.2315698795178,0.00041603275690498394,0.047681773498198424
228,1570.2323144578309,0.0004236364754492583,0.0476245526676817
229,1570.2330397590363,0.0004327485319439653,0.047571405718490264
230,1570.2337987951817,0.0004461889152925005,0.047510256612844054
231,1570.2345927710849,0.0004591118102319271,0.04744818958291221
232,1570.235446987952,0.00047454652935342503,0.04737875796386598
233,1570.2363614457822,0.00048796838265175384,0.047292771921701685
234,1570.2373445783126,0.0005099818521745993,0.04719828248793074
235,1570.238425301205,0.0005294991591630093,0.047094601758861716
236,1570.2395662650604,0.0005604674558393631,0.04695917233122586
237,1570.2407518072284,0.0005944013032736019,0.04681639016357794
238,1570.2419662650602,0.0006219587032465268,0.04665256698951745
239,1570.243220481929,0.0006596358853200471,0.04647019318821516
240,1570.2444566265067,0.0006974375279690843,0.04627131321475369
241,1570.2456999999993,0.0007335174558673576,0.04604641811697229
242,1570.2469192771075,0.0007818763680206656,0.045811458790136914
243,1570.2481096385557,0.0008322195983300092,0.04555867826155664
244,1570.2492457831331,0.0008822228026240654,0.0452956212186386
245,1570.2503120481924,0.0009287411724737263,0.04502414849305673
246,1570.251284337348,0.0009797825655757943,0.04477727681446891
247,1570.2521807228911,0.001026574020863554,0.04452041905158979
248,1570.2530012048198,0.001074688381737076,0.044267362850673474
249,1570.2537361445786,0.0011209597733857959,0.044022001545661854
250,1570.2544313253013,0.0011628646277605187,0.04379238815147388
251,1570.2550867469874,0.0012075859875093017,0.04357117567309769
252,1570.255742168674,0.0012452795381788025,0.04333684364466018
253,1570.2564216867472,0.0012960733766974027,0.043095437445894336
254,1570.257136144578,0.0013455889457241238,0.04283118425762839
255,1570.2579060240967,0.0014026628266338814,0.04251826531576377
256,1570.2587518072291,0.0014676154939248388,0.042146586378352925
257,1570.259656626506,0.0015467561305315817,0.041730312512661516
258,1570.260621686746,0.0016365992077298466,0.04126771017471311
259,1570.261690361445,0.0017393430629412,0.040713896394401074
260,1570.262816867471,0.0018642743816912248,0.040085443943560534
261,1570.263995180724,0.0019919148805498553,0.03937346058327926
262,1570.265228915662,0.0021431790624859845,0.03858656828297482
263,1570.2664915662651,0.002304381367153518,0.03770361085979682
264,1570.267759036145,0.0024785943497478997,0.0367546985530187
265,1570.2690204819278,0.0026665845756058282,0.035754031814673896
266,1570.2702445783127,0.0028546596864391697,0.03469765544538546
267,1570.2714397590364,0.003056717839149065,0.03363371700247686
268,1570.2725807228924,0.0032413119264639075,0.03258942603697176
269,1570.273671084338,0.0034260574688887097,0.031563619351286404
270,1570.2746915662651,0.003592708220177453,0.030615943482569182
271,1570.2756024096382,0.0037545914873147283,0.02974237099238383
272,1570.2764518072297,0.00389544910156945,0.028954302013590474
273,1570.277228915663,0.004018149837027828,0.028272822146008948
274,1570.2779566265065,0.004131078721590149,0.027641041448940876
275,1570.2786518072287,0.004234907716864459,0.027074988166073108
276,1570.2793108433732,0.004321843022734106,0.02658522694196865
277,1570.2799831325297,0.004403815839484459,0.026129510844584935
278,1570.2806722891557,0.004486724968977909,0.025691917927028907
279,1570.2813915662664,0.004551242175088434,0.025304849150574335
280,1570.282166265061,0.004609913603813601,0.02496236242912719
281,1570.2830277108437,0.004655891809644871,0.02468310667628678
282,1570.2839626506025,0.004682604833782215,0.024551849425634792
283,1570.284989156626,0.004660830087966249,0.024645323763708864
284,1570.2860807228924,0.0045795857275951896,0.025068706944821845
285,1570.2872554216872,0.004411181746172776,0.025957586549487103
286,1570.2884530120482,0.004145399933631903,0.027392885226170074
287,1570.2896506024088,0.0037918065297099153,0.029279052583910458
288,1570.2908554216867,0.003419029363929203,0.031352474242637124
289,1570.292063855422,0.003018806300796645,0.03356455890820454
290,1570.293261445783,0.002648305520862906,0.03566470115199669
291,1570.2944084337344,0.00236708402203031,0.03721845546908333
292,1570.2955457831324,0.0021285206540647542,0.03855857261361941
293,1570.2966385542175,0.001904199670393647,0.03980727279037422
294,1570.2976626506031,0.0017351630373245294,0.04074062677221685
295,1570.298618072289,0.0016052647586940947,0.04145323866149329
296,1570.2995204819274,0.0014904475997464242,0.04207686349079892
297,1570.3003987951815,0.0013912768167217782,0.042636079699026684
298,1570.3012265060247,0.0013072375200772078,0.04310926035186059
299,1570.3020228915666,0.001244170191766943,0.043503155626081584
300,1570.3028024096386,0.0011777790718025217,0.04385661949927003
301,1570.3035698795181,0.0011203652612232719,0.04419411065635305
302,1570.3043361445773,0.001067838287224402,0.0444919493080122
303,1570.3051168674692,0.001018109543673803,0.044761506860357944
